0
0
0
0
0
0
1.31645
1.82657
2.42106
3.0452
2.13974
0.282946
-0.582025
-0.586891
-0.148073
1.26668
3.12334
4.06876
3.59816
2.89847
2.40466
1.56104
0.622837
-0.224235
-0.996574
-2.04328
-2.62067
-2.97636
-4.03857
-5.02616
-5.47039
-5.29802
-5.12881
-4.98054
-2.73989
1.48269
4.32877
6.19792
7.53739
6.29904
3.91944
2.62257
2.80589
3.90466
4.40685
3.83284
2.83092
1.25076
0.296183
0.0926076
-0.0608795
0.591657
1.44229
1.75253
1.59355
1.22052
0.531975
-0.641256
-1.24012
-0.98107
-1.03989
-0.787448
-0.345692
-0.486372
0.200024
0.582596
-0.467968
-1.10229
-1.45632
-2.75569
-3.33127
-2.70896
-2.5614
-2.22571
-1.97157
-1.90455
-1.426
-1.21688
-0.664315
-0.00727573
0.244206
0.590025
0.986594
0.868671
0.644156
1.21876
2.75102
6.19492
9.62263
10.139
7.07369
0.68099
-6.16286
-10.6261
-12.0207
-10.5843
-7.47978
-5.55091
-5.64598
-6.20482
-5.94296
-4.56149
-3.52569
-3.15904
-3.09887
-2.77619
-2.14935
-2.06187
-0.902583
0.658497
1.71124
2.88556
3.69982
5.14859
6.10518
6.05929
5.89431
6.14882
6.21842
5.63862
6.37938
6.523
5.35389
4.66191
4.53552
4.89713
5.19776
4.83798
3.62272
2.34172
0.616565
-1.26412
-1.54599
-1.0507
-1.21911
-1.48681
-1.77162
-1.63527
-1.42819
-1.78427
-1.51941
-1.38245
-2.25931
-3.10114
-2.94732
-2.46967
-2.38083
-1.68179
-0.781511
-1.07228
-2.07257
-3.08433
-3.21563
-3.127
-3.73576
-3.13056
-1.38206
-0.5674
-0.411277
0.248576
0.455808
-0.631848
-0.949335
-0.246379
0.0715802
0.636631
0.755034
0.143354
-0.594556
-1.3439
-1.51096
-1.06233
-0.396079
0.367449
0.980009
0.789929
0.766718
1.18997
1.1934
1.46299
2.00877
2.00075
1.51351
1.41965
0.913789
-0.279303
-1.09065
-2.36846
-3.41963
-3.54307
-3.51482
-2.70185
-1.6517
-1.11521
-0.369311
0.775926
1.50809
1.23657
1.54107
2.63387
4.02569
7.13962
11.2999
13.9489
12.0286
5.04489
-2.07559
-6.72156
-9.93568
-9.63773
-6.25981
-3.81887
-3.4389
-4.68903
-5.49806
-5.05254
-5.1313
-3.95227
0.134193
4.20985
6.91356
8.18396
6.71789
3.97797
1.97607
1.17728
2.13112
3.50001
3.54056
2.68853
1.64226
0.163547
-0.802236
-0.800416
-1.04319
-0.649083
-0.197622
-0.745471
-1.37027
-2.16176
-2.7718
-2.78207
-1.77517
-0.475561
0.114373
0.542205
0.38018
-0.916125
-2.04899
-2.33496
-2.76946
-3.13636
-2.75104
-2.13169
-1.49943
-0.911165
0.20383
1.53089
1.8779
2.37362
2.88263
2.45745
2.0929
1.54844
0.645278
0.202326
-0.79237
-1.88292
-1.81593
-1.78475
-1.90674
-1.63294
-2.33262
-2.97588
-2.18587
-1.69707
-0.720628
0.735455
1.05295
0.858305
0.64334
0.597842
0.656896
0.697567
0.673839
0.269881
-0.329945
-1.03133
-2.3266
-3.3174
-3.39556
-3.17072
-1.68462
0.734689
2.43629
3.31701
3.65045
3.01993
1.92753
1.48274
1.13605
0.986291
1.63291
2.40115
3.01053
3.17981
3.01468
2.78647
2.44522
1.85308
1.64609
1.92137
1.55038
1.72049
2.24495
2.62126
5.16771
8.55495
9.09531
6.0219
0.338426
-5.6616
-9.34678
-10.0341
-7.70114
-3.44812
-1.00693
-1.86931
-3.3824
-3.61844
-3.20728
-2.51803
-1.87881
-1.81833
-1.69803
-1.56001
-1.57511
-1.04836
-0.538012
-0.824374
-0.982416
-0.959623
-1.35025
-1.59722
-2.15755
-2.94934
-2.93139
-2.71086
-2.75459
-2.61462
-2.51018
-2.88363
-2.68789
-1.13588
0.527573
1.67504
2.36154
2.41101
2.14383
2.14882
2.40337
2.5782
2.89526
3.01841
2.91928
3.11302
3.47254
3.99986
4.27728
4.11273
4.07942
3.46159
2.75433
2.50199
1.81865
1.35227
1.50077
1.33824
0.64861
0.596594
0.827751
-0.277522
-1.98924
-2.75711
-4.17766
-6.22286
-6.59652
-6.63002
-6.67971
-6.18186
-5.15614
-2.50267
1.16743
4.13451
5.64386
5.98464
4.4081
2.03957
1.34685
1.36431
1.93332
2.82533
2.51994
1.77835
1.2923
0.761285
0.349358
0.21712
0.326783
-0.104719
-1.19174
-1.67036
-1.86813
-2.25202
-2.02231
-1.38727
-1.39802
-1.37679
-1.34312
-2.10349
-2.08721
-1.93422
-2.575
-2.35543
-1.36447
-1.05538
-1.4779
-1.06216
0.454174
3.51154
7.73356
10.6261
10.0522
4.5072
-2.22199
-5.98767
-7.8366
-6.75761
-2.52155
-0.0759015
-0.692503
-1.87584
-2.51852
-2.12291
-1.42254
-1.09265
-0.550804
-0.282025
-0.321142
0.155842
0.275163
0.0068716
-0.0426136
-0.680128
-1.5701
-1.07604
-0.154581
-0.385899
-0.4947
-0.378686
-1.01225
-0.972603
-0.485696
0.0765615
1.0141
1.18736
0.682431
0.635371
1.19739
1.0905
1.74969
3.00185
3.52213
4.22112
4.04466
3.55971
4.3025
4.66745
4.19442
4.45268
4.45043
3.07423
1.55988
1.13702
1.3785
1.66231
2.1109
2.33125
2.24729
1.93492
0.670573
-0.894447
-1.88342
-3.25705
-5.57279
-6.9566
-6.85386
-6.739
-5.7714
-4.30313
-3.23817
-2.32871
-1.95839
-1.70762
-1.6054
-1.91042
-1.4812
-1.14097
-1.75249
-1.20929
-0.587653
-0.966993
-1.06062
-1.37363
-1.80818
-2.11719
-2.24779
-1.94719
-1.52467
-1.29522
-0.753117
-0.718953
-1.34104
-1.12003
-0.763578
-0.15986
0.829269
1.76262
2.2783
2.38555
2.42901
2.39524
2.64382
2.75852
3.60255
4.75959
4.31917
3.87263
4.00953
3.26201
2.69936
3.89669
7.13776
10.6334
11.4186
8.76784
3.53493
-2.14516
-5.87653
-6.95236
-5.80154
-3.42346
-2.09669
-3.55628
-5.75535
-6.95594
-7.57899
-7.61113
-7.48727
-6.87026
-4.25856
-0.0908802
2.67875
4.329
6.22758
5.43302
2.39635
0.600492
0.158557
-0.333769
-0.0792624
0.67827
0.54752
0.19553
-0.0556945
-0.240729
-0.530805
-0.592326
-0.535469
-0.538902
-0.695305
-0.889092
-1.07846
-1.73281
-1.53069
-0.396536
-0.0497536
0.0788066
1.11422
1.35335
0.683665
1.22931
1.9784
1.882
1.83158
1.48155
1.18404
1.51004
1.17311
0.62795
1.32498
1.54508
0.608267
0.81865
0.396065
-1.19361
-1.44269
-1.90427
-1.86169
-0.768853
-0.554427
-0.447966
-0.174641
-0.628603
-1.27135
-1.35441
-1.65212
-1.69483
-1.31061
-1.28943
-1.42329
-1.97531
-2.70771
-3.0724
-2.64663
-1.78665
-1.04654
-0.654749
-0.654739
-0.922035
-1.00294
-0.408008
-0.196909
-0.274113
-0.175241
-0.141262
-0.0428533
0.610568
1.37828
1.91383
2.43992
2.66518
2.67072
2.49555
2.74075
2.48807
2.1212
2.8902
3.98651
3.98966
3.36741
3.418
2.40262
1.70306
2.91173
5.56029
9.4076
11.3818
9.68904
4.61635
-2.15884
-8.04116
-11.0503
-10.0163
-6.59929
-3.68201
-2.63596
-2.48542
-2.70073
-3.66413
-3.47676
-2.53795
-2.57538
-1.98098
-1.03765
-0.930118
-0.877777
-0.97226
-1.0716
-0.843473
-0.626447
-0.429552
-0.66201
-1.52082
-2.50585
-3.364
-4.12671
-4.54344
-4.31751
-3.85802
-2.85494
-1.60521
-0.725754
0.357188
1.14096
1.77128
2.36241
1.91367
1.51685
1.59309
1.24923
1.69293
2.96729
3.56244
4.37857
5.00589
4.14155
3.4962
3.12472
2.74217
2.62655
2.94427
3.79738
3.50758
2.86441
2.07215
0.962917
1.07285
1.5421
1.85994
1.65938
0.290647
-1.42277
-3.16294
-4.73674
-5.65163
-6.13383
-6.93391
-7.41065
-7.01343
-6.27327
-3.94013
0.560613
4.83014
7.25405
8.60958
8.34618
5.31885
1.71014
0.394903
0.275538
-0.0608075
0.200394
0.338148
-0.332408
-0.762328
-1.21981
-2.12147
-2.63189
-3.11643
-3.81284
-3.34076
-2.25064
-1.4785
-0.774631
-1.19981
-1.88203
-2.0941
-2.07346
-1.8107
-1.89993
-1.76959
-1.44046
-0.79054
-0.185105
0.305263
1.5301
3.35518
7.11301
11.2523
12.2804
9.14611
2.5287
-3.32688
-6.89161
-8.22204
-5.38924
-1.19726
0.0818249
-0.180074
0.107785
0.249519
0.00975403
-0.547163
-0.753921
-0.971952
-1.57171
-1.21226
-0.819382
-0.942032
-0.817889
-0.83494
-1.00012
-1.38512
-1.65308
-1.38215
-1.13579
-1.1245
-0.666603
-0.319798
-0.520168
0.040452
0.600688
0.666431
1.04597
0.903518
0.710875
0.829446
0.876722
1.13289
1.44476
2.14553
2.90212
3.23843
3.32021
3.20054
3.18953
3.04466
2.46486
2.22091
1.91372
0.945319
0.71081
0.880632
0.368913
0.185482
0.538726
0.269335
-0.258567
-0.329101
-0.862503
-1.77876
-2.44101
-2.8979
-2.67671
-2.17219
-1.87667
-1.45847
-1.15822
-0.94334
-1.32061
-2.13001
-2.38865
-2.40845
-2.25972
-1.89374
-1.22127
-0.53883
-0.827055
-1.20558
-0.502278
0.0974101
0.708525
1.46356
0.935853
0.358875
0.21336
-0.584011
-0.406294
0.53472
0.377785
0.0388112
-0.421837
-1.6187
-2.22176
-1.66416
-1.30583
-0.956765
-0.431912
-1.17307
-2.22379
-2.53931
-2.47923
-1.57048
-0.240516
0.899375
1.79421
1.88813
2.13844
3.91061
7.14629
11.2573
13.3822
11.3714
5.79157
-0.519188
-4.64403
-6.26624
-4.32311
-0.821523
1.33088
2.01632
0.977305
-0.154751
-0.047261
0.0160964
-0.376501
0.0444336
1.11684
1.71421
1.16615
-0.307357
-2.34767
-4.79843
-6.78291
-8.08422
-8.92406
-8.74801
-8.143
-7.95337
-6.8593
-3.06054
1.99297
6.15017
9.54031
10.8231
9.42435
6.57802
4.14905
3.38017
3.02288
2.32797
1.9608
0.927233
-0.791486
-1.42801
-1.43087
-2.11875
-3.07289
-2.8475
-2.59787
-2.17922
-0.88201
-0.32804
-0.24865
-0.00140852
-0.202556
-0.419778
-0.0320673
0.143764
-0.0962764
-0.588087
-1.0048
-0.771013
-0.817993
-1.06349
-0.803409
-1.08658
-1.19395
-1.26936
-0.981194
-0.131964
-0.344175
0.00531005
0.4425
-0.15872
-0.317808
0.0770919
0.709787
1.23136
1.14109
0.901787
0.650343
0.0878448
0.0280884
1.14024
1.64182
1.09384
1.22527
0.720022
-0.318461
0.0376132
0.432453
-0.0575102
-0.537097
-0.918981
-1.37285
-1.27279
-0.77995
-0.0764455
1.00199
1.47546
1.28688
1.0898
0.507566
-0.284685
-0.810934
-1.2751
-1.62244
-1.22302
-0.690145
0.413998
3.60954
7.50461
10.4055
11.3642
7.93518
1.00964
-3.83132
-6.22392
-6.77505
-3.733
-0.279673
1.0453
0.286782
-1.4643
-2.08612
-2.03712
-2.17893
-1.91908
-1.59445
-1.98879
-2.03642
-1.34209
-1.14086
-1.55069
-1.70605
-1.56982
-1.80941
-1.94594
-1.95836
-1.56053
-0.826563
-1.16915
-1.5588
-1.18509
-1.2941
-2.10853
-1.83743
-1.21622
-1.27429
0.124951
1.27516
1.12101
1.78119
2.33752
2.29286
2.32494
2.12285
1.97567
1.76818
1.58918
2.12129
2.56011
2.18983
2.2292
2.32715
1.0087
0.179825
0.126423
-0.750609
-1.67955
-2.13244
-1.80449
-1.47216
-1.41559
-0.307286
0.627011
1.18677
2.14721
2.05243
1.55256
1.75484
1.33128
1.08557
1.6788
1.57128
1.49284
1.87951
1.98557
1.97203
1.66383
1.04079
0.338933
-0.480602
-0.52925
0.234477
0.257999
0.064903
0.627067
0.531062
-0.103268
-0.209253
-1.51743
-4.09354
-5.68941
-6.4493
-7.33499
-7.96887
-7.866
-7.65614
-8.35337
-8.48379
-5.39789
-0.441382
3.73014
6.67156
7.96692
7.01217
4.58854
2.59248
1.52946
1.2473
2.37084
4.66907
7.72385
9.70304
7.9877
2.94464
-3.20594
-7.6701
-8.95817
-6.65853
-2.34785
0.937692
1.85097
1.39092
1.01719
0.861742
0.946758
0.550009
0.266301
0.423324
0.267487
0.0687671
-0.0729333
-0.307352
-0.442683
-0.0503315
0.616564
1.28237
1.41167
1.2107
1.10759
0.576462
-0.000621177
0.0502545
-0.389119
-1.12931
-0.936671
-0.902841
-0.664381
0.219228
0.542376
0.327849
-0.255292
-0.682291
-0.493559
-0.512693
-0.254385
0.244202
-0.296613
-1.05376
-1.3007
-0.950823
-0.442255
-0.800159
-0.917666
-1.06807
-1.87972
-1.49005
0.0466701
0.820123
0.777311
0.460531
-0.3928
-0.830927
-0.905548
-0.257309
1.07284
1.26444
0.972014
0.763282
0.396435
0.452694
0.644001
0.608605
0.638985
0.901397
1.45128
1.9566
2.63556
3.04946
2.8832
2.37386
1.05275
0.431694
0.424455
-0.363107
-1.09381
-1.28343
-1.5233
-1.71458
-1.92289
-2.52732
-2.72812
-2.77837
-3.00461
-2.806
-2.43073
-2.17213
-2.06837
-2.08109
-1.45583
-0.709514
-0.409028
0.119592
0.356781
-0.159087
-0.23966
0.254271
0.379525
0.79534
1.46795
2.0607
3.70395
6.9706
10.1729
11.1986
8.33624
1.73281
-4.22832
-7.45232
-8.3899
-5.89605
-1.84032
0.26874
0.118944
-0.736347
-1.14335
-0.941859
-0.625056
-0.929667
-1.26339
-0.930627
-0.874298
-1.25922
-1.35064
-1.36462
-1.54315
-1.7586
-1.6742
-0.69022
0.0687965
0.358998
1.75146
3.11306
3.3357
3.50333
3.1799
2.10408
1.37701
1.10618
0.728857
0.703526
1.31932
1.01058
0.267863
0.754081
1.55147
1.71773
2.1628
2.76304
2.96614
3.04879
1.93006
0.722049
0.0482031
-1.30698
-2.09704
-2.68904
-3.87256
-4.56894
-5.99759
-7.6399
-7.34621
-7.07687
-6.7056
-4.09614
-0.647848
1.89333
3.5072
3.76796
2.25347
0.134584
-1.47093
-1.60125
-0.112584
1.5868
2.59841
2.52874
2.0751
1.04061
-0.834733
-1.21684
-0.401248
0.22871
0.964543
1.80105
2.31222
1.83909
0.936209
0.588412
0.527395
0.211202
0.333787
0.271881
-0.374136
-0.239856
0.11221
0.191295
0.279546
0.700321
1.32382
1.63741
1.78701
1.56483
1.44194
0.780857
-0.494312
-0.296211
0.401194
0.538638
0.817894
0.259478
-0.345181
0.670425
3.75912
8.08601
10.2863
8.65513
3.48001
-3.33573
-8.68687
-10.3872
-8.73413
-5.53299
-2.40469
-1.78396
-2.39542
-2.0517
-1.65616
-1.73295
-2.13485
-1.95593
-1.72252
-1.53792
-0.921438
-1.07604
-1.52662
-1.71311
-2.18783
-1.99626
-0.822724
-0.508814
-0.38863
0.105474
0.0620504
0.558434
1.06881
1.01255
1.6412
2.20003
2.02005
2.29712
2.83037
2.77359
2.77395
2.89486
2.73349
2.89671
2.7253
1.91381
1.27371
0.612444
-0.181504
-0.400325
-0.191536
-0.222404
0.36233
0.894404
0.315328
0.264415
0.502519
-0.207219
-0.405844
-0.108954
-0.697555
-1.01839
-0.844647
-1.38526
-1.09898
-0.356116
-0.954337
-1.39066
-1.37022
-1.76401
-2.02599
-1.34102
-0.374791
-0.118171
-0.297316
-0.625826
-0.861487
-0.93256
-0.947371
-0.269589
0.843718
1.40518
1.65762
1.65353
0.888706
-0.0655086
-0.230866
0.240317
0.214603
0.0693941
0.598628
0.420426
-0.439122
-0.562945
-0.151449
-0.594173
-0.670053
0.0576924
-0.237253
-0.643417
-0.783473
-1.33249
-2.20134
-2.54749
-2.21654
-2.18987
-2.39968
-1.94061
-0.961243
0.300703
3.39053
8.3341
11.915
11.9623
7.84966
0.664819
-4.99392
-7.56924
-7.39418
-3.042
1.37058
2.01865
1.59496
0.797327
0.00665434
0.640372
0.907505
0.212046
0.0361574
-0.180287
-0.756192
-0.642176
-0.680836
-1.0383
-0.962042
-0.784304
-0.663016
-0.714487
-1.29742
-2.22058
-3.74047
-5.43807
-5.67211
-4.89194
-4.56517
-4.21243
-1.89094
1.65279
4.13908
5.75018
6.87251
6.30054
3.58115
0.953786
0.611328
1.291
1.92423
2.1855
1.69226
1.45657
0.694272
-0.898064
-1.12694
-0.66185
-1.31738
-1.71696
-1.18811
-0.681695
-0.236607
0.276776
0.308029
0.0132688
-0.518565
-1.60361
-1.82688
-1.01438
-0.755578
-0.377227
0.776246
0.751682
-0.0895377
0.469084
0.763601
0.298549
0.610998
1.45819
2.16486
2.27895
2.68346
2.86509
2.25992
2.27763
2.12083
1.32929
1.07238
0.940198
0.189279
-0.464495
-0.463386
-1.18066
-2.18836
-2.57812
-2.97749
-2.90013
-2.47035
-2.95007
-3.18916
-2.9795
-4.14818
-4.14309
-2.59383
-2.462
-2.77455
-2.37196
-2.1622
-2.18145
-1.71466
-1.09022
-0.936979
-1.13037
-1.09974
0.108195
3.61048
8.39577
11.6125
11.4609
6.71408
0.281026
-3.44006
-5.24109
-4.35341
-0.0562659
2.94743
2.42598
1.35631
0.92838
0.514001
1.01966
1.55196
1.43292
1.04908
0.450649
0.392842
0.189284
-0.0431523
0.232748
0.128942
0.0611403
0.148699
-0.023392
-0.352432
-0.358046
-0.343767
-0.909664
-0.585326
-0.0879782
-0.343583
-0.943144
-1.65139
-1.52917
-1.50662
-1.6379
-1.01107
-0.322295
-0.0466493
0.0623824
0.408987
0.495755
0.226978
-0.300263
-0.910381
-0.952242
-1.37659
-1.38324
-0.36993
-0.0612777
0.414526
1.44553
1.6081
0.923684
-0.0579074
-0.859408
-1.38469
-1.42086
-0.778693
-0.45661
-0.00512211
0.831594
0.449126
0.0411219
0.342698
0.394092
0.317286
-0.139515
-0.516718
-0.794611
-1.23149
-1.66593
-1.57646
-0.685563
-0.440535
-0.346605
0.21085
0.335325
0.883274
1.99733
2.43658
2.03724
0.778622
-0.275525
-0.786391
-1.51836
-1.15134
-0.241766
0.31574
1.24192
1.20921
0.575525
1.07031
0.727401
-0.429306
-0.473947
-0.207928
0.477939
1.95055
3.00291
3.25436
3.5503
2.78767
0.64694
-0.0767851
0.272921
0.684508
2.89167
6.21082
8.2857
7.54583
2.32261
-6.01261
-12.6226
-15.8109
-16.0592
-12.5441
-6.52212
-1.24546
1.58261
3.2793
5.21162
5.51222
3.75494
2.32933
1.39707
0.875782
1.40824
1.72534
1.08258
0.157322
-0.60326
-1.0113
-0.931038
-0.394355
0.235383
0.468675
0.257443
0.0959185
0.251499
0.1623
0.136256
0.479734
0.665912
0.872264
0.610075
0.0477105
-0.459061
-1.12004
-1.50661
-1.49284
-1.10252
-0.884401
-0.82991
-0.591668
-0.53118
-0.148725
0.403337
0.591015
1.35391
2.06527
2.13325
1.97481
2.31625
2.68445
2.02577
1.69346
0.858795
-0.563873
-1.29841
-1.735
-1.58495
-0.857182
-0.800598
-1.42166
-1.29304
-1.22559
-1.37371
-1.16091
-1.49468
-1.93978
-1.77765
-1.49842
-1.15863
-0.48599
0.0697105
0.514077
0.974067
1.03379
0.905872
0.977593
1.02378
1.02322
1.33737
2.31445
2.49706
1.16825
0.68999
0.870658
0.623615
0.895753
1.39791
1.21531
0.999219
1.2063
1.55535
1.61449
0.984637
0.119897
-1.20746
-2.18328
-2.24715
-2.31211
-2.17114
-2.01937
-2.66879
-3.12541
-2.01656
0.0793844
3.71889
7.72722
9.47209
7.96505
2.06099
-4.18659
-7.40125
-9.21077
-8.3721
-4.93504
-2.99626
-3.15172
-3.11491
-2.165
-1.06665
-0.38639
0.611391
1.25172
0.723784
0.184506
0.103423
-0.114521
0.0970158
0.842401
1.51355
2.41235
2.65763
2.24534
1.95421
1.28881
1.04804
0.80105
0.318798
1.21461
1.72528
1.64834
2.34971
2.25849
1.8678
1.51189
0.485918
-0.120645
-0.377693
-0.852621
-1.42263
-1.53147
-1.60884
-2.2621
-2.11982
-1.68719
-1.35697
-0.482132
0.539114
1.68878
1.98729
1.66842
1.82389
1.76358
1.10841
0.590357
0.294885
-0.260035
-0.195268
0.0366243
0.514232
1.21802
0.727684
0.3522
0.137348
0.046321
0.417744
0.3042
-0.231095
-0.665179
-0.832795
-0.37552
0.481086
0.668427
0.868316
1.04108
0.405396
0.0993133
0.0947098
-0.358277
-0.610545
-1.20694
-2.73434
-4.26032
-5.5985
-6.8564
-8.0045
-8.78556
-7.7761
-5.09897
-2.3713
0.648983
3.54818
4.40844
3.48085
2.2296
1.73056
1.68251
1.65509
2.36197
2.31042
1.15678
0.503144
0.61915
1.0336
1.06553
2.17955
5.81778
9.55849
11.7412
11.7928
6.59963
-0.880967
-5.7216
-8.62567
-8.06805
-3.96233
-0.363135
0.704953
-0.429484
-1.58576
-1.30686
-0.896021
-0.548465
0.442664
1.08482
0.72827
0.402028
-0.149717
-0.240911
0.72781
1.19172
1.79785
2.54778
1.93184
0.341448
-0.602151
-1.23107
-1.8698
-1.61209
-1.19964
-0.554293
0.536177
0.385495
-0.295369
-0.325848
-0.872287
-1.85599
-1.53377
-0.689268
-1.19772
-1.90424
-2.30197
-2.50778
-2.4123
-2.39551
-1.40843
-0.41427
-0.988035
-1.3053
-0.540139
0.0300567
0.0433247
0.584224
0.786618
0.125058
0.0532995
-0.0567727
0.0992464
0.7913
0.900557
0.858465
0.53978
0.24845
0.502971
0.61684
1.12361
1.35733
1.19979
0.861772
0.336227
0.676775
0.938531
0.599926
0.864363
1.81268
1.641
1.16203
1.40713
1.08417
0.649877
0.724917
0.874127
0.806377
0.919447
0.836783
0.167451
-0.191775
-0.662389
-1.30943
-1.69859
-2.00521
-1.7887
-1.16472
-0.780229
-0.825501
-0.418294
-0.0039104
-0.350691
-0.370936
-0.37245
-1.03067
-1.18707
-1.1475
-1.19897
-0.747866
-0.238503
0.902833
3.59008
7.56826
10.4922
10.4194
6.20942
-0.770155
-5.60092
-7.58057
-7.65191
-4.48841
-0.782333
-0.301072
-1.98683
-3.36139
-3.94884
-4.05508
-3.57503
-2.53332
-1.42388
-1.09082
-1.1449
-1.1128
-1.00644
-0.50444
0.361159
1.37083
2.21777
2.1224
1.1271
0.748183
0.947609
0.833582
0.996579
1.53624
1.7151
1.8637
1.39491
0.86413
1.25707
1.22698
1.43303
2.07506
2.53218
2.95234
3.15866
2.73806
1.52988
0.653173
-0.637398
-2.39838
-3.67495
-4.74936
-5.24512
-4.89845
-3.97982
-3.75913
-4.00729
-2.32936
0.520426
1.94882
3.72758
5.67579
4.52313
2.72672
2.29316
1.6949
1.81689
2.16512
1.50138
0.546739
-0.451973
-1.22501
-1.31821
-1.44463
-2.53507
-2.23691
-1.0077
-0.867266
-0.250515
0.211092
0.343973
0.761077
0.656731
0.933118
1.48266
1.02331
-0.103859
-0.99621
-1.0319
-0.999282
-0.971652
-0.616618
-0.869109
-1.13281
-0.634685
-0.178358
0.354823
0.881257
0.706035
-0.158218
-0.913686
-1.02095
-1.51032
-1.08007
-0.407793
-1.0073
-0.777554
-0.536993
-0.687509
-0.38805
0.294011
2.37345
5.88148
9.37649
10.2682
6.98541
0.760186
-5.02488
-8.60933
-9.41465
-6.55339
-2.80976
-1.4975
-2.09683
-2.47898
-1.8278
-1.13796
-0.293306
0.876636
0.288302
-0.767475
-0.626381
-0.732392
-1.20646
-0.592252
0.65314
0.92048
1.29603
2.10937
2.82367
3.66234
3.63364
2.98287
2.79203
2.49771
1.50931
0.735236
0.981662
0.789031
-0.0251163
0.290045
0.880793
0.89829
1.35813
1.22609
0.378596
-0.437332
-1.15959
-0.682286
-0.385588
-0.712754
-0.434021
-0.756707
-2.0616
-2.54944
-2.0882
-1.59225
-0.847532
-0.494162
-0.587172
-0.787275
-0.872018
-0.873032
-0.735522
-0.132475
0.127631
0.108778
0.402215
0.491896
0.0651896
0.242774
0.655702
0.43567
0.495652
0.558674
0.0336977
-0.643965
-1.26481
-1.59685
-0.826505
0.667917
0.941119
0.749179
0.934927
0.183808
-0.982789
-0.939586
-0.306724
-0.666101
-1.1794
-0.935909
-1.08177
-1.7959
-2.42074
-3.01827
-3.25629
-3.17057
-2.25177
-0.298126
1.16366
1.2754
1.11463
1.86985
2.62244
2.7174
3.30512
3.64385
2.72901
1.50463
1.07018
1.67157
1.61184
1.56865
3.36903
6.33218
10.0655
12.8023
10.5785
3.93955
-2.6632
-7.66201
-9.87962
-7.88336
-3.7499
-1.1927
-1.79812
-3.54644
-4.11306
-4.34735
-5.38675
-6.0451
-6.03979
-6.32009
-6.10782
-4.70796
-1.99469
1.0277
2.99944
4.03808
4.00838
3.14958
2.15828
1.93796
2.58327
3.07541
3.64233
3.06745
1.19351
0.572841
-0.226192
-2.04256
-2.21918
-1.10053
-0.815736
-0.365057
0.384014
0.31554
0.244025
0.153126
0.313223
1.04194
1.12999
0.721944
0.946633
0.904518
0.576983
0.34737
-0.369833
0.118127
0.992094
0.580634
1.4883
2.69826
2.0782
1.13421
0.712614
0.637417
0.0642354
-0.430351
-0.10733
0.215799
-0.622206
-1.89995
-2.0327
-1.84919
-2.172
-1.62493
-0.0023902
0.47701
-0.149365
-0.307606
-0.62771
-1.40886
-1.75971
-1.76425
-0.964984
-0.387285
-0.564665
-0.370371
-0.651535
-0.991326
-0.812928
-1.3113
-1.33794
-0.563556
-1.17124
-1.86168
-1.72002
-1.88407
-1.86478
-1.12665
-0.510695
-0.23854
0.144207
0.425211
0.754993
1.32226
2.17189
2.7401
2.59022
2.13729
2.06364
2.46024
2.65304
3.21426
5.53259
9.15543
11.8841
11.9532
7.85107
1.23188
-4.07267
-8.18023
-9.34395
-5.63495
-2.16333
-1.39077
-1.41371
-1.91673
-1.90849
-1.54981
-1.52345
-1.4251
-1.62643
-1.94202
-1.77834
-1.4348
-1.60645
-1.66314
-1.63761
-2.07803
-1.963
-1.50205
-0.978175
-0.953016
-1.74837
-1.55591
-0.708445
-0.343682
-0.0191134
1.00482
1.41702
0.763503
1.2242
1.53734
1.24023
1.57899
1.7075
1.21412
0.515655
0.45119
0.473015
-0.494199
-1.10938
-0.742479
-1.05639
-1.34986
-0.825169
-1.06072
-1.21538
-0.935248
-1.03263
-0.458478
0.229768
0.544753
0.849923
0.760788
0.895996
1.6427
2.36842
2.80809
2.66637
2.30007
1.88271
0.853094
0.34071
0.631546
0.422837
0.503033
1.42422
1.87681
1.82305
1.85052
1.7856
1.38635
0.731919
0.884184
1.60514
1.97081
2.25923
1.75481
0.615878
-0.55482
-2.27457
-3.72506
-4.52625
-5.75689
-6.46753
-5.94674
-5.63492
-5.57185
-4.16499
-1.6637
0.484394
2.70111
4.24463
3.83558
2.42901
0.683929
-0.697835
-0.544636
0.136419
0.394905
0.0273691
-1.12282
-2.04547
-1.90379
0.37947
4.75891
8.48224
8.41853
4.28705
-1.73194
-7.18422
-9.94989
-8.86975
-4.81835
-0.527137
1.113
0.538508
0.48264
0.443685
-0.6521
-0.440642
0.433554
-0.0211492
0.525688
1.40019
1.2429
1.53293
2.2843
3.13796
3.85703
4.00697
3.64054
3.13759
2.09047
1.00488
0.862797
0.565801
0.0561949
0.0677987
-0.377382
-0.750201
-0.398694
-0.384182
-0.481121
-0.625554
-1.10683
-1.12146
-0.729813
-0.395427
-0.0100889
-0.167515
-0.981474
-0.797862
-0.691914
-1.56221
-1.19471
-1.05039
-1.98867
-2.14636
-1.60764
-1.33957
-1.14739
-0.722697
